<?xml version="1.0" encoding="UTF-8"?>
<kml xmlns="http://www.opengis.net/kml/2.2">
  <Document>
    <description>A Route recorded by JMacre on Feb 13, 15 -- View in full at http://ridewithgps.com/routes/6988536</description>
    <name>Ultraman 2015 - Run</name>
    <Style id="default_style">
      <LineStyle>
        <color>ff0000ff</color>
        <width>2</width>
      </LineStyle>
    </Style>
    <Placemark>
      <description> -- View in full at http://ridewithgps.com/routes/6988536</description>
      <name>Ultraman 2015 - Run</name>
      <visibility>1</visibility>
      <flyToView>1</flyToView>
      <styleUrl>#default_style</styleUrl>
      <LineString>
        <extrude>1</extrude>
        <tessellate>1</tessellate>
        <altitudeMode>clampedToGround</altitudeMode>
        <coordinates>
-81.70707,28.55674,77.1
-81.70744,28.55726,76.9
-81.70768,28.55748,76.9
-81.70799,28.55772,76.7
-81.70817,28.55782,76.5
-81.70817,28.55782,76.5
-81.70848,28.55799,76.3
-81.70872,28.55809,76
-81.70962,28.55836,73
-81.71009,28.55849,70.2
-81.71009,28.55849,70.2
-81.71128,28.55884,66.4
-81.71213,28.55914,68.2
-81.71313,28.55953,57.5
-81.71472,28.56024,44.1
-81.71534,28.56058,47
-81.71573,28.56089,48.7
-81.71586,28.56104,49
-81.7162,28.56147,48.1
-81.71628,28.56151,47.9
-81.71628,28.56151,47.9
-81.71642,28.56157,47.7
-81.71683,28.56161,49.4
-81.71705,28.56164,50.3
-81.71719,28.56166,50.5
-81.71732,28.56173,50.1
-81.71744,28.56197,48.9
-81.71756,28.56249,48.4
-81.71777,28.56294,48.1
-81.71786,28.56304,48
-81.71794,28.56323,47.8
-81.71805,28.56356,49.9
-81.71805,28.56356,49.9
-81.71822,28.56402,53.2
-81.71823,28.56417,53.4
-81.71848,28.56491,56.7
-81.71892,28.56624,54.7
-81.71924,28.56712,47.4
-81.71938,28.56748,42.9
-81.7196,28.56821,36.2
-81.71968,28.56836,35.8
-81.71978,28.5685,35.4
-81.7199,28.56858,34.6
-81.72011,28.56872,33.1
-81.72025,28.56886,32.9
-81.72034,28.56901,33.3
-81.72048,28.56941,34.7
-81.72058,28.5696,35.2
-81.72068,28.56973,35.5
-81.72068,28.56973,35.5
-81.72076,28.56982,35.7
-81.72102,28.57004,36.2
-81.72137,28.57045,36.4
-81.72182,28.57081,35.8
-81.72193,28.57087,36.1
-81.72234,28.57104,37.8
-81.72283,28.57119,38.3
-81.72344,28.5713,38.2
-81.72344,28.5713,38.2
-81.723403,28.571647,38.4
-81.72339,28.57165,38.4
-81.72339,28.57519,37.9
-81.72339,28.57553,38.3
-81.72342,28.57581,39.2
-81.72344,28.57621,40.9
-81.72344,28.57621,40.9
-81.7234,28.57671,43
-81.72338,28.57796,40.4
-81.72334,28.57876,41.5
-81.72333,28.57929,43.4
-81.72332,28.58035,48.9
-81.72331,28.58093,51.5
-81.72338,28.58288,62.8
-81.72336,28.5854,66.8
-81.72335,28.58715,67.1
-81.72337,28.58893,66
-81.72335,28.59058,61.3
-81.72324,28.59212,69.2
-81.72323,28.59315,70.7
-81.72322,28.59436,72.7
-81.72321,28.59486,74.7
-81.7232,28.59655,74.5
-81.72318,28.59738,76.2
-81.72321,28.59746,76.2
-81.72327,28.59752,76.3
-81.72336,28.59754,76.6
-81.72381,28.59755,77.4
-81.72381,28.59755,77.4
-81.72679,28.59755,89.7
-81.73145,28.59758,88.9
-81.73294,28.59761,84.5
-81.73525,28.59761,76.6
-81.73543,28.59765,75.9
-81.73552,28.59773,75.7
-81.73557,28.59787,76.1
-81.73557,28.59893,80.1
-81.73553,28.60065,70.8
-81.73554,28.60099,67.7
-81.73556,28.60106,67.3
-81.73565,28.6012,66.6
-81.73576,28.60127,66.1
-81.73596,28.60132,65.4
-81.73637,28.60134,64
-81.73759,28.60132,55.9
-81.7376,28.60247,56.2
-81.73756,28.60398,50.7
-81.73755,28.60587,56.9
-81.73753,28.60868,70.3
-81.73753,28.61146,75.3
-81.73749,28.61428,75.8
-81.73748,28.61503,72.9
-81.73747,28.61611,65.4
-81.73746,28.61737,72.8
-81.7374,28.6175,73.3
-81.7373,28.61758,73.4
-81.73713,28.61761,72.9
-81.73621,28.61757,67
-81.73555,28.61758,63.2
-81.73544,28.61762,63.1
-81.73537,28.61768,63.2
-81.73534,28.61775,63.4
-81.73532,28.61795,64.4
-81.73532,28.61958,74.9
-81.73532,28.62058,74.4
-81.73532,28.62058,74.4
-81.73532,28.62185,66.2
-81.73533,28.6228,55.9
-81.73531,28.62288,55.7
-81.7354,28.62291,55.5
-81.73982,28.62407,41
-81.74338,28.625,30.7
-81.7438,28.6251,31.3
-81.74403,28.62514,32
-81.74448,28.62512,32.8
-81.74516,28.62494,33.3
-81.74781,28.62415,32.7
-81.75014,28.62345,32.8
-81.75075,28.62333,29.9
-81.75134,28.62331,28.7
-81.75166,28.62333,28.1
-81.75198,28.62338,28.1
-81.7525,28.62351,27.9
-81.7528,28.62363,28
-81.75308,28.62376,27.8
-81.75337,28.62392,27.8
-81.75355,28.62402,27.9
-81.75336,28.62416,28.6
-81.75277,28.62463,32
-81.75228,28.62507,35.3
-81.75204,28.62531,37.2
-81.75204,28.62531,37.2
-81.75069,28.62661,44.2
-81.75036,28.62695,46.1
-81.75001,28.62739,48.5
-81.74945,28.62814,53.8
-81.74832,28.62966,60
-81.74793,28.63022,58.9
-81.74775,28.63054,57.9
-81.74755,28.63096,54.6
-81.74695,28.63235,44.8
-81.74682,28.63272,42.7
-81.74614,28.63496,28.9
-81.74559,28.6368,27.4
-81.74557,28.63697,27.4
-81.74558,28.63711,27.3
-81.74561,28.63721,27.2
-81.74571,28.63741,27.1
-81.74576,28.63748,27.2
-81.74592,28.63761,27.5
-81.74612,28.63771,27.8
-81.74623,28.63775,28
-81.7464,28.63777,28.1
-81.74661,28.63776,28.1
-81.74734,28.63767,28.4
-81.74786,28.6376,28.3
-81.7481,28.63759,28.2
-81.74829,28.6376,28
-81.74843,28.63764,27.8
-81.74858,28.6377,27.7
-81.74872,28.6378,28.2
-81.74884,28.63792,28.6
-81.74893,28.63805,28.9
-81.74898,28.6382,29.1
-81.749,28.63832,29.2
-81.74898,28.63855,29.5
-81.74886,28.63956,30.5
-81.74829,28.64386,32.2
-81.74819,28.64435,32.5
-81.74807,28.64468,32.7
-81.74799,28.64486,32.8
-81.74792,28.64498,32.9
-81.74872,28.64497,33.5
-81.74957,28.64499,35
-81.74957,28.64499,35
-81.75295,28.645,43.1
-81.75796,28.64503,32.6
-81.76329,28.64507,37.5
-81.76486,28.64506,34.4
-81.77034,28.64509,34.5
-81.77249,28.64512,25
-81.77383,28.64525,25
-81.77418,28.64528,25
-81.77434,28.64597,25
-81.77434,28.64597,25
-81.77454,28.64683,26.7
-81.77468,28.64715,27.6
-81.77494,28.64746,27
-81.77522,28.64766,27.1
-81.77546,28.64775,27.4
-81.77566,28.64776,27.5
-81.77632,28.64773,26.6
-81.77679,28.64764,27
-81.77704,28.64754,27.3
-81.77742,28.64733,27.8
-81.77791,28.647,28.1
-81.77815,28.6469,27.8
-81.77843,28.64685,27.3
-81.77863,28.6468,27.2
-81.77883,28.6467,27.1
-81.77897,28.64657,27
-81.77906,28.64645,27
-81.77917,28.64631,27.1
-81.77928,28.64622,27
-81.77943,28.64614,27
-81.77959,28.64611,26.8
-81.78034,28.64612,26.4
-81.78051,28.64618,26.3
-81.7806,28.64626,26.3
-81.78067,28.64636,26.3
-81.78071,28.64648,26.3
-81.78075,28.64695,25.9
-81.7808,28.64709,25.7
-81.78093,28.64723,25.7
-81.78105,28.6473,25.8
-81.78114,28.64739,25.8
-81.78148,28.64803,25.6
-81.78183,28.64854,25.6
-81.78191,28.64875,25.6
-81.78197,28.64908,25.6
-81.78194,28.64927,25.6
-81.78189,28.64947,25.6
-81.78178,28.64972,25.6
-81.78159,28.64997,25.6
-81.78114,28.65041,25.6
-81.7808,28.65077,25.6
-81.78053,28.65115,25.6
-81.77969,28.65251,25.6
-81.77936,28.65307,25.6
-81.7793,28.6533,25.5
-81.7793,28.65347,25.5
-81.77934,28.65367,25.6
-81.7794,28.6538,25.6
-81.7802,28.6554,27
-81.78046,28.65647,28.7
-81.78081,28.65761,27.4
-81.78093,28.65814,26.7
-81.78109,28.65867,26.3
-81.78121,28.6588,26.4
-81.78177,28.6593,26.2
-81.78206,28.65948,26.1
-81.78228,28.65957,25.9
-81.78251,28.65964,25.7
-81.78287,28.65966,25.9
-81.78358,28.65962,26.3
-81.7838,28.65963,26.4
-81.78392,28.65965,26.5
-81.78411,28.65973,26.6
-81.78434,28.65986,26.8
-81.78446,28.65989,26.8
-81.78467,28.65986,26.9
-81.7848,28.65985,27.1
-81.78489,28.65987,27.4
-81.78507,28.65996,28.2
-81.78553,28.66028,28.1
-81.78494,28.66099,27.2
-81.78492,28.66101,27.2
-81.78492,28.66101,27.2
-81.78438,28.6617,27.6
-81.78379,28.66248,28
-81.78304,28.66358,27.1
-81.78251,28.66446,27.1
-81.78188,28.66558,27
-81.78138,28.66659,27.2
-81.78115,28.66708,27.3
-81.78109,28.66722,27.4
-81.78166,28.66703,29
-81.78206,28.66696,30.4
-81.78369,28.66693,31.7
-81.7859,28.66693,30.9
-81.79143,28.66691,26.8
-81.79393,28.66691,28.3
-81.79437,28.66696,28.2
-81.79437,28.66696,28.2
-81.79457,28.667,28.2
-81.7965,28.66764,25.8
-81.79735,28.6679,26.2
-81.79771,28.66797,26.3
-81.79806,28.66798,26.1
-81.79842,28.66794,26.4
-81.7988,28.66784,27.2
-81.8007,28.66708,29.2
-81.8012,28.66694,29
-81.8015,28.66689,29.1
-81.80184,28.66687,29.5
-81.80331,28.66689,29.8
-81.80427,28.66688,28.3
-81.80478,28.66682,27.9
-81.80515,28.6667,27.9
-81.80542,28.66656,28
-81.80569,28.66633,28.4
-81.80586,28.66612,28.6
-81.80685,28.66443,30.1
-81.80793,28.6626,32.5
-81.80918,28.66044,29.8
-81.80978,28.65939,28.5
-81.80992,28.65905,27.8
-81.80997,28.65874,27.4
-81.80997,28.6582,25.9
-81.80991,28.65639,28
-81.80995,28.65599,27.6
-81.81004,28.65569,27.6
-81.81016,28.65547,27.9
-81.81042,28.65519,28.2
-81.81142,28.65444,29.5
-81.81179,28.65416,27.7
-81.81206,28.65394,30.1
-81.81299,28.65326,27.7
-81.81299,28.65326,27.7
-81.81338,28.65297,26.8
-81.81375,28.65266,26.6
-81.81391,28.65244,26.1
-81.81403,28.65223,26
-81.81411,28.65201,25.9
-81.81416,28.65193,26
-81.81417,28.65183,26
-81.8142,28.65165,26.2
-81.81419,28.65144,26.4
-81.81407,28.65092,26.3
-81.81397,28.65038,26.2
-81.8139,28.64874,28.3
-81.81386,28.64669,38.1
-81.81383,28.64407,42
-81.81382,28.64339,40.4
-81.81383,28.64128,32.3
-81.81384,28.64001,32.9
-81.81385,28.63952,35.4
-81.81391,28.63932,36.1
-81.81424,28.63873,38.2
-81.81443,28.63835,39
-81.81449,28.6381,39.6
-81.81449,28.63787,40.2
-81.81443,28.63765,40.8
-81.81428,28.6374,42
-81.81406,28.63717,43.7
-81.81343,28.63659,47.1
-81.81313,28.6363,48.6
-81.81295,28.63603,49.8
-81.81287,28.63582,50.5
-81.81284,28.63563,51.2
-81.81284,28.63505,52.5
-81.81285,28.63493,52.6
-81.81285,28.63493,52.6
-81.81288,28.63468,52.3
-81.81298,28.63439,51.8
-81.81317,28.63414,51.3
-81.81356,28.63375,50.3
-81.81371,28.63353,50.3
-81.8138,28.63335,49.9
-81.81387,28.63305,49.1
-81.81391,28.63259,47.1
-81.81389,28.6309,35.8
-81.8139,28.63036,31.9
-81.81401,28.63003,29.2
-81.81421,28.62951,27.5
-81.81424,28.62931,27.4
-81.81421,28.62907,27.3
-81.81393,28.62848,27.4
-81.81388,28.62818,27.5
-81.81392,28.62638,27.9
-81.81397,28.62622,27.8
-81.81412,28.62599,27.8
-81.81431,28.62572,27.9
-81.81435,28.62566,28
-81.81435,28.62558,27.9
-81.81434,28.62534,27.7
-81.81423,28.62507,27.5
-81.81401,28.62474,27.8
-81.81391,28.62454,28.9
-81.81387,28.6243,30.3
-81.81391,28.62385,33.4
-81.81393,28.62318,37.1
-81.81308,28.62316,38.3
-81.81178,28.62317,38.7
-81.80926,28.62318,44.4
-81.80926,28.62318,44.4
-81.8075,28.62318,45.7
-81.80548,28.6232,44.2
-81.80349,28.62318,32.3
-81.80335,28.6232,31
-81.80322,28.62327,29.6
-81.80284,28.62364,27.6
-81.80264,28.62378,27.1
-81.8025,28.62383,26.9
-81.80232,28.62386,27.1
-81.80204,28.62384,27.7
-81.80181,28.62378,28.8
-81.80161,28.62366,29.4
-81.80122,28.62331,30.9
-81.80101,28.62321,32.8
-81.80076,28.62317,35.2
-81.80004,28.62319,40.3
-81.79859,28.6232,48.1
-81.79562,28.6232,39.8
-81.79562,28.6232,39.8
-81.79468,28.62319,39.1
-81.79339,28.62321,45.5
-81.79313,28.62321,46.2
-81.79311,28.61583,30.3
-81.79306,28.61546,30.9
-81.79295,28.6151,31.5
-81.79281,28.61482,31.7
-81.7916,28.61276,31.3
-81.7909,28.61151,34.6
-81.7907,28.6111,37.8
-81.79056,28.61065,40.4
-81.79059,28.61026,43.1
-81.79071,28.60982,46.4
-81.79095,28.60935,48.5
-81.79109,28.60901,49.7
-81.79113,28.60871,50.4
-81.79115,28.60832,50.9
-81.79118,28.60793,50.9
-81.79128,28.60753,50.8
-81.79138,28.60722,50.5
-81.79157,28.60678,50.7
-81.79187,28.60627,51.2
-81.7923,28.60575,52.1
-81.7923,28.60575,52.1
-81.79525,28.60208,54.6
-81.79562,28.60162,54.9
-81.79574,28.60143,54.9
-81.79589,28.6011,54.8
-81.79589,28.60104,54.8
-81.79595,28.60084,54.8
-81.79601,28.60055,54.4
-81.79604,28.6002,53.4
-81.79588,28.59915,48.7
-81.79536,28.59673,31.4
-81.79421,28.5969,31.5
-81.79363,28.59692,31.6
-81.79313,28.59687,31.5
-81.79241,28.59667,31.5
-81.79073,28.59611,31.4
-81.79051,28.59606,31.4
-81.79012,28.59603,31.3
-81.78893,28.596,31
-81.78865,28.59595,30.8
-81.78835,28.5958,30.3
-81.78693,28.59489,30.2
-81.78666,28.59478,30.7
-81.78642,28.59474,31.8
-81.78622,28.59473,32.6
-81.78622,28.59473,32.6
-81.78312,28.59474,31
-81.77533,28.59475,40
-81.77,28.59475,55.5
-81.77,28.59232,56.4
-81.77,28.59225,56.3
-81.77,28.59225,56.3
-81.77005,28.5902,44.8
-81.77005,28.5896,37.6
-81.7676,28.58971,33.4
-81.76548,28.58982,31.4
-81.76523,28.58986,31.4
-81.76471,28.59001,31.5
-81.76358,28.59037,30.2
-81.76339,28.59038,30.2
-81.76288,28.59039,30.2
-81.76238,28.59039,30.2
-81.76191,28.59038,30.2
-81.7619,28.59021,30.2
-81.76186,28.59003,30.2
-81.76168,28.58972,30.2
-81.7613,28.58915,30.5
-81.76092,28.58854,31.3
-81.76067,28.58819,32.7
-81.76057,28.58807,33.2
-81.76057,28.58807,33.2
-81.75999,28.58742,35.1
-81.75944,28.58693,34.6
-81.75827,28.58597,31.5
-81.75726,28.58507,31
-81.75662,28.58445,31.7
-81.7563,28.58407,32.5
-81.75535,28.58274,33.9
-81.75492,28.58204,35.1
-81.75455,28.5814,34.9
-81.75435,28.58101,33.9
-81.75398,28.58018,31.4
-81.75366,28.57928,31.9
-81.7534,28.57838,32.5
-81.75326,28.57765,32.5
-81.75322,28.57731,32.3
-81.7532,28.576,31
-81.75316,28.5758,31.3
-81.75306,28.57569,32.2
-81.75296,28.57566,32.9
-81.75266,28.57566,34.8
-81.75266,28.57566,34.8
-81.75198,28.57565,37.4
-81.75199,28.57449,32.3
-81.752,28.57302,30.5
-81.75204,28.5728,31
-81.752,28.57264,31.4
-81.752,28.57264,31.4
-81.75198,28.57253,31.8
-81.7521,28.57251,31.5
-81.75217,28.57246,31.5
-81.75229,28.57229,32
-81.75238,28.57219,32.2
-81.75256,28.57207,32
-81.75256,28.57207,32
-81.7529,28.57187,31.7
-81.75329,28.57152,31.7
-81.7535,28.57119,31.7
-81.75368,28.57081,31.7
-81.75447,28.56858,31.8
-81.75468,28.56784,32.1
-81.75518,28.56635,32.9
-81.75551,28.56543,33
-81.75562,28.56527,33.1
-81.75609,28.56471,32.6
-81.75609,28.56471,32.6
-81.75621,28.56462,32.2
-81.75622,28.56455,32.4
-81.7562,28.56451,32.7
-81.75616,28.5636,32.7
-81.75616,28.56338,33.2
-81.75616,28.56338,33.2
-81.75616,28.56235,39
-81.75618,28.56138,43.2
-81.75621,28.56127,43.4
-81.75623,28.56042,44.7
-81.75623,28.55951,45.4
-81.75623,28.5583,45.4
-81.75624,28.55784,44.9
-81.75521,28.55783,40.2
-81.75482,28.55782,37.6
-81.75482,28.55782,37.6
-81.75394,28.55781,33.1
-81.75381,28.55782,32.5
-81.75335,28.55802,32.6
-81.75305,28.55811,32
-81.75277,28.55811,31.2
-81.75241,28.55804,33.7
-81.75202,28.55786,31.2
-81.7518,28.55778,32
-81.75135,28.55775,32.9
-81.75064,28.55772,29.7
-81.75044,28.55761,28.6
-81.75013,28.55733,28.3
-81.74923,28.55674,28.8
-81.74896,28.55661,28.6
-81.74896,28.55661,28.6
-81.74875,28.55657,28.7
-81.7485,28.55657,28.6
-81.74827,28.5566,28.5
-81.74786,28.55672,29.1
-81.74754,28.55686,29.5
-81.74737,28.55697,29.9
-81.74726,28.55711,29.9
-81.74718,28.55726,29.8
-81.74706,28.5575,29.8
-81.74696,28.55761,30.1
-81.74684,28.55767,30.7
-81.7467,28.55767,31.4
-81.74415,28.55762,35.5
-81.74328,28.55759,37.2
-81.74259,28.55758,38.4
-81.74259,28.55758,38.4
-81.74105,28.55754,40.1
-81.74095,28.55752,39.8
-81.74052,28.55752,37.7
-81.73988,28.5575,35.6
-81.73989,28.55718,35.5
-81.73989,28.557,35
-81.73987,28.55611,31.2
-81.73988,28.55565,30.7
-81.73988,28.55565,30.7
-81.73989,28.55435,30.3
-81.73988,28.55319,25.8
-81.73989,28.55152,34.9
-81.73989,28.5489,43.1
-81.73989,28.54814,47.3
-81.73989,28.54784,49.3
-81.73986,28.54777,49.6
-81.73985,28.5477,49.9
-81.73985,28.5476,50.4
-81.73986,28.54637,55.8
-81.73984,28.54553,55.5
-81.73983,28.54437,47.6
-81.73984,28.54363,40.5
-81.73984,28.54318,36.6
-81.73941,28.54318,34.2
-81.73877,28.54317,31.2
-81.73873,28.54316,31
-81.73873,28.54316,31
-81.73762,28.54306,28.8
-81.73689,28.54303,33.8
-81.73204,28.54296,62.3
-81.72942,28.5429,57
-81.72762,28.54288,56.8
-81.72564,28.54284,70.4
-81.72352,28.54278,82.8
-81.72352,28.54266,82.7
-81.72353,28.54231,82
-81.72354,28.54215,81.4
-81.72364,28.54149,76.3
-81.72366,28.54121,73.4
-81.72365,28.53972,60.7
-81.72365,28.53972,60.7
-81.72367,28.53883,55.3
-81.72373,28.53777,52.5
-81.72372,28.53694,49.7
-81.72373,28.53653,52.8
-81.72378,28.53625,55.7
-81.72387,28.53593,59.7
-81.72402,28.5356,62.9
-81.72407,28.5355,63.4
-81.72426,28.53522,64.7
-81.72433,28.53514,65.1
-81.7248,28.53467,68.4
-81.72612,28.53343,61.1
-81.72651,28.53303,55.6
-81.72695,28.53248,51
-81.7273,28.53191,49.1
-81.7282,28.52995,39.6
-81.729,28.52813,41.5
-81.72926,28.52749,41.3
-81.72936,28.52693,38
-81.7294,28.52639,35.5
-81.72933,28.52575,31.2
-81.72926,28.52546,30.5
-81.72914,28.5251,29.7
-81.72893,28.52464,29.3
-81.72821,28.52329,29
-81.72802,28.52294,28.5
-81.72802,28.52294,28.5
-81.7271,28.5212,29.2
-81.72703,28.52103,29.3
-81.727,28.5209,29.3
-81.727,28.52074,29.5
-81.72702,28.52061,29.7
-81.72709,28.52044,30
-81.72725,28.52022,30.7
-81.72737,28.52011,31.4
-81.72756,28.52,32.7
-81.72821,28.51973,36.5
-81.72779,28.51895,34.5
-81.72779,28.51895,34.5
-81.72631,28.51618,28.9
-81.72609,28.51575,30.2
-81.72532,28.5143,39.1
-81.72459,28.51296,47.7
-81.72347,28.51084,57.9
-81.7221,28.50827,50
-81.72176,28.50756,48.3
-81.72142,28.50678,48.2
-81.72099,28.50573,48.8
-81.72079,28.50524,48.5
-81.7203,28.504,50.9
-81.71897,28.50055,51.2
-81.71828,28.4987,45.2
-81.71764,28.49705,35.1
-81.71693,28.49518,29.8
-81.71647,28.49401,29.9
-81.7163,28.49349,29.9
-81.71612,28.49298,29.5
-81.71589,28.49223,29.3
-81.71569,28.4915,30.1
-81.71541,28.49031,34.6
-81.71514,28.48899,39.7
-81.71506,28.48851,39.5
-81.7148,28.48637,31.4
-81.71473,28.48485,29.9
-81.71473,28.48414,30.2
-81.71476,28.48285,31.7
-81.71457,28.48279,31.7
-81.71449,28.48271,31.7
-81.71445,28.48265,31.7
-81.71437,28.48239,31.9
-81.71437,28.48239,31.9
-81.71425,28.48205,32
-81.7141,28.48175,32.1
-81.71388,28.48149,31.9
-81.71367,28.48128,31.7
-81.7135,28.48104,31.7
-81.71342,28.48089,31.8
-81.71336,28.48072,31.8
-81.71335,28.48044,32
-81.71355,28.47898,31.5
-81.71457,28.47256,30.8
-81.71484,28.47109,38.1
-81.71492,28.4706,40.8
-81.70794,28.47067,39.6
-81.7075,28.47067,39.4
-81.70738,28.47065,39.5
-81.7072,28.47057,39.7
-81.70713,28.47048,40
-81.70705,28.47021,40.6
-81.70704,28.46991,41.3
-81.70706,28.46325,42.4
-81.70704,28.46164,35
-81.70705,28.46095,39.5
-81.70703,28.45733,51.1
-81.707,28.45587,42.1
-81.707,28.45468,38.8
-81.70701,28.45339,42.4
-81.70698,28.45161,38.9
-81.70697,28.45089,35.3
-81.70689,28.4505,33.8
-81.70667,28.44997,32.5
-81.70657,28.44966,32.1
-81.70651,28.44906,32.7
-81.70643,28.44889,33.2
-81.7063,28.44879,33.9
-81.7061,28.44873,35.1
-81.7051,28.44869,42.1
-81.70422,28.44871,43.8
-81.70136,28.44872,39.7
-81.70034,28.44871,38.2
-81.70034,28.44871,38.2
-81.69767,28.44871,37.5
-81.69436,28.44876,37.9
-81.68949,28.44884,35.6
-81.68696,28.44885,39.9
-81.68408,28.44882,43.2
-81.68071,28.44879,48.3
-81.67602,28.44873,47.2
-81.66685,28.4487,31.9
-81.66628,28.44872,31.6
-81.66583,28.44878,31.7
-81.66537,28.44889,31.9
-81.66479,28.44913,32
-81.66412,28.44948,32.8
-81.66333,28.44996,33.9
-81.66253,28.45041,33.8
-81.66169,28.45088,33.1
-81.66142,28.45096,33
-81.66103,28.45102,33.1
-81.6608,28.45103,33.2
-81.66035,28.45099,33.2
-81.65848,28.45071,32.5
-81.65815,28.45065,32.7
-81.65792,28.45058,32.7
-81.65775,28.45049,32.6
-81.65756,28.45031,32.4
-81.65746,28.45013,32.4
-81.65743,28.44995,32.5
-81.65749,28.44946,32.8
-81.65745,28.44924,32.9
-81.65737,28.44903,32.7
-81.65721,28.44884,32.5
-81.65709,28.44878,32.4
-81.65686,28.44871,32.4
-81.65435,28.44875,33.6
-81.65389,28.44872,33.5
-81.65358,28.44864,33
-81.65333,28.44855,32.5
-81.65306,28.44844,31.7
-81.65283,28.44835,31.4
-81.65256,28.44829,31.3
-81.65228,28.44829,31.2
-81.65206,28.44833,31.3
-81.65171,28.44849,31.9
-81.65133,28.44867,33.9
-81.65105,28.44875,34.5
-81.65064,28.44877,34.6
-81.64444,28.4488,47.2
-81.64267,28.44884,50.6
-81.6422,28.44885,50.9
-81.64097,28.44889,51.7
-81.64049,28.44892,51.8
-81.63868,28.44896,49.7
-81.63656,28.44899,47.1
-81.6362,28.44901,46.8
-81.6362,28.44926,46.3
-81.63621,28.45013,43.2
-81.63621,28.45013,43.2
-81.63632,28.45709,40.1
-81.63637,28.45773,39.8
-81.63646,28.45816,39.5
-81.63656,28.45851,38.8
-81.63669,28.45886,37.4
-81.63695,28.45939,34.7
-81.63714,28.45972,33.6
-81.63687,28.45986,34
-81.63663,28.45983,34.7
-81.6362,28.45981,36
-81.6359,28.4598,36.4
-81.63107,28.45984,38.5
-81.63074,28.45984,39.3
-81.63074,28.45984,39.3
-81.62693,28.45988,36.9
-81.62648,28.45992,36.9
-81.62593,28.46001,37.9
-81.62531,28.46014,38.5
-81.6245,28.4604,36.7
-81.62463,28.4607,37
-81.62485,28.46109,37.5
-81.62549,28.46209,35.8
-81.62617,28.46318,30.6
-81.62646,28.46374,33.6
-81.62666,28.4642,36.4
-81.62697,28.46504,35.9
-81.6274,28.46622,30.7
-81.6274,28.46622,30.7
-81.62803,28.46795,34.3
-81.62857,28.46948,34.6
-81.62864,28.46987,35.1
-81.62866,28.47023,36.2
-81.62862,28.4706,37.5
-81.62852,28.47095,37.5
-81.62838,28.47127,37.9
-81.62821,28.47154,38.4
-81.62791,28.4719,39.5
-81.62748,28.47225,41.5
-81.62711,28.47265,41.9
-81.62696,28.47288,40.8
-81.62683,28.47314,39.6
-81.62671,28.47345,39
-81.62663,28.47386,37.7
-81.62662,28.47437,35.5
-81.62515,28.47438,35
-81.62327,28.47438,32.6
-81.62208,28.47441,31.6
-81.62153,28.47439,31
-81.62103,28.47435,30.9
-81.6205,28.47425,31.8
-81.61995,28.47411,32.7
-81.61936,28.47391,31.7
-81.61859,28.47356,30.2
-81.61736,28.47294,30.2
-81.61736,28.47294,30.2
-81.61692,28.47274,30.4
-81.61673,28.47264,30.5
-81.61667,28.47275,30.4
-81.61661,28.47291,30.3
-81.6166,28.47291,30.3
-81.61649,28.47319,30.3
-81.61612,28.47402,30.3
-81.61596,28.47427,30.2
-81.61575,28.47453,30.2
-81.61539,28.47486,30.2
-81.61519,28.47501,30.2
-81.61495,28.47515,30.2
-81.61464,28.47529,30.2
-81.61429,28.47541,30.2
-81.61332,28.47564,31.7
-81.613,28.47575,31.8
-81.61265,28.47591,31.8
-81.61236,28.4761,31.9
-81.61224,28.47621,31.8
-81.61202,28.47644,31.5
-81.61185,28.47665,31
-81.61174,28.47686,30.7
-81.61159,28.47726,30.3
-81.61153,28.47753,30.2
-81.61152,28.47786,30.3
-81.61151,28.47853,30.4
-81.61149,28.47867,30.4
-81.61134,28.47902,30.8
-81.61121,28.47926,31.8
-81.61111,28.47959,32.4
-81.61109,28.47977,32.3
-81.61111,28.47993,32.4
-81.61115,28.48009,32.7
-81.61148,28.48081,33.6
-81.61158,28.48114,34.6
-81.61159,28.48142,35.5
-81.61156,28.48174,36.9
-81.61157,28.48193,38.1
-81.6116,28.48244,41.6
-81.6116,28.48244,41.6
-81.61162,28.48262,41.2
-81.61169,28.48291,38.7
-81.61172,28.48325,36.1
-81.61179,28.48731,37.5
-81.61178,28.48864,38.5
-81.61183,28.49342,34.4
-81.61183,28.49806,41.9
-81.61183,28.49806,41.9
-81.61183,28.4996,41
-81.61183,28.4996,41
-81.61187,28.50358,43.1
-81.61187,28.50501,41
-81.61187,28.50548,40.3
-81.61186,28.50737,37.8
-81.60974,28.50739,36.4
-81.60962,28.50739,36.3
-81.60962,28.50739,36.3
-81.60898,28.5074,35.9
-81.60891,28.50738,35.8
-81.6077,28.50739,34.6
-81.60576,28.50741,33.5
-81.60531,28.50742,32.9
-81.60511,28.5074,32.5
-81.60498,28.50737,32.3
-81.60486,28.50731,32
-81.60472,28.5072,31.8
-81.60262,28.50458,31
-81.60262,28.50458,31
-81.60216,28.50401,30.7
-81.60201,28.50391,30.7
-81.60181,28.50386,30.5
-81.60161,28.50389,30.5
-81.59918,28.50533,30.5
-81.5986,28.50565,30.5
-81.59843,28.5057,30.5
-81.59812,28.50572,30.6
-81.59601,28.50574,30.6
-81.59601,28.50574,30.6
-81.59492,28.50574,30.6
-81.59509,28.50381,31.7
-81.59518,28.5021,32
-81.59514,28.50194,32
-81.59503,28.50185,32
-81.59474,28.50166,31.9
-81.59474,28.50166,31.9
-81.59341,28.50068,32.3
-81.59308,28.50049,32.2
-81.59291,28.50043,32.2
-81.59266,28.50038,32.2
-81.59236,28.50035,32.2
-81.59209,28.50037,32.2
-81.59163,28.50035,32.4
-81.59117,28.50024,32.3
-81.59066,28.50003,32.1
-81.59028,28.49989,32.1
-81.5899,28.4998,32
-81.58959,28.49977,32
-81.58923,28.49979,32.1
-81.58893,28.49985,32.4
-81.58858,28.49998,32.9
-81.58816,28.50014,33.4
-81.58796,28.5002,33.6
-81.58776,28.50024,33.9
-81.58763,28.50025,34.1
-81.58768,28.50025,34
-81.58733,28.50026,34.3
-81.58574,28.50025,34.6
-81.58364,28.50029,34.2
-81.58364,28.50029,34.2
-81.58008,28.50037,33.8
-81.57892,28.50039,33.9
-81.57782,28.5004,33.9
-81.57714,28.50039,33.9
-81.57679,28.50038,33.8
-81.57586,28.50041,34.2
-81.57524,28.50047,34.2
-81.57098,28.50059,34.8
-81.56938,28.50061,34.8
-81.5683,28.50064,34.8
-81.56645,28.50071,34.9
-81.56621,28.50073,34.9
-81.56586,28.50079,34.9
-81.56554,28.50088,34.7
-81.56486,28.50117,34.8
-81.56455,28.50127,34.7
-81.56432,28.50131,34.6
-81.56408,28.50134,34.5
-81.56376,28.50134,34.4
-81.56343,28.50134,34.3
-81.56343,28.50134,34.3
-81.56302,28.50134,34.1
-81.56296,28.50137,34
-81.56237,28.50137,33.7
-81.56165,28.50136,33.2
-81.56115,28.50137,33
-81.56025,28.50139,33
-81.55997,28.50144,33
-81.55972,28.50152,33
-81.55959,28.50154,33
-81.55941,28.50162,33.1
-81.5593,28.50166,33.3
-81.55858,28.50015,32.5
-81.55834,28.49972,32.4
-81.55819,28.4996,32.2
-81.55799,28.49951,32.1
-81.55781,28.49946,32
-81.55768,28.49948,32.4
-81.55698,28.49972,34.4
-81.55698,28.49972,34.4
-81.55604,28.50009,34
-81.55486,28.50052,33.4
-81.55412,28.50093,31.5
-81.55393,28.50096,31.3
-81.55361,28.50093,31.1
-81.55315,28.50072,32.8
-81.55276,28.50061,33.4
-81.55259,28.50058,33.5
-81.55244,28.50061,33.6
-81.55219,28.50074,33.9
-81.55138,28.50135,33.4
-81.55088,28.50176,31.9
-81.55046,28.50214,31.1
-81.5475,28.50487,35.1
-81.54659,28.50571,33.7
-81.54636,28.50585,33.6
-81.54591,28.50595,34
-81.54168,28.5059,31.9
-81.54168,28.5059,31.9
-81.54151,28.50589,32
-81.54119,28.50595,32.1
-81.5409,28.50579,31.9
-81.54009,28.50526,31.4
-81.53933,28.50472,30.9
-81.53912,28.50452,30.8
-81.53875,28.50412,30.5
-81.53865,28.50399,30.5
-81.53865,28.50399,30.5
-81.5383,28.50355,30
-81.53797,28.50306,30.5
-81.53715,28.50105,30.9
-81.53698,28.50052,31.2
-81.53578,28.49705,36.3
-81.53565,28.49679,36.3
-81.5352,28.49562,37.4
-81.53513,28.4953,37.5
-81.53512,28.49518,37.5
-81.53502,28.49492,37.6
</coordinates>
      </LineString>
    </Placemark>
  </Document>
</kml>
